# ν (kHz), U_A (mV)
20 92.5
21 87.5
22 102
23 118
24 138
25 162
26 194
27 234
28 291
29 320
30 440
31 625
31.5 750
32 870
32.25 918
32.5 948
33 937
33.25 900.5
33.5 850
34 735
34.5 625
35 532
36 398
37 310
38 247
39 200
40 165
